# Wavelength (nm)	Smoothed Intensity
299.383362	2.845124
299.552002	2.912997
299.720612	2.965793
299.889191	3.026401
300.057800	3.121670
300.226379	3.206903
300.394958	3.287115
300.563538	3.375331
300.732117	3.472953
300.900696	3.555794
301.069244	3.626865
301.237793	3.720174
301.406342	3.794346
301.574890	3.881855
301.743408	3.965358
301.911957	4.057983
302.080475	4.144491
302.248993	4.221869
302.417480	4.326730
302.585999	4.423984
302.754486	4.531443
302.922974	4.623646
303.091461	4.734346
303.259949	4.814036
303.428436	4.898621
303.596893	4.984393
303.765350	5.071468
303.933807	5.170105
304.102264	5.260589
304.270691	5.367605
304.439117	5.467146
304.607574	5.564809
304.776001	5.659409
304.944397	5.771069
305.112823	5.861433
305.281219	5.949175
305.449615	6.057339
305.618011	6.167701
305.786407	6.267618
305.954773	6.371323
306.123169	6.477630
306.291534	6.581758
306.459900	6.681449
306.628235	6.791141
306.796600	6.898774
306.964935	7.006372
307.133270	7.132176
307.301605	7.232980
307.469940	7.344453
307.638245	7.435793
307.806580	7.556375
307.974884	7.671436
308.143188	7.785233
308.311462	7.898055
308.479767	8.006396
308.648041	8.130440
308.816315	8.231934
308.984589	8.337726
309.152863	8.439950
309.321106	8.539895
309.489380	8.638341
309.657623	8.756015
309.825867	8.875683
309.994080	8.982470
310.162323	9.097306
310.330536	9.203551
310.498749	9.310102
310.666962	9.420049
310.835175	9.539183
311.003357	9.654832
311.171539	9.750344
311.339752	9.847440
311.507904	9.958876
311.676086	10.073556
311.844238	10.187285
312.012421	10.291712
312.180573	10.400127
312.348724	10.517833
312.516846	10.622010
312.684998	10.750149
312.853119	10.847231
313.021240	10.955667
313.189362	11.055404
313.357452	11.163559
313.525574	11.265775
313.693665	11.375476
313.861755	11.470968
314.029846	11.570908
314.197937	11.667335
314.365997	11.762517
314.534058	11.863658
314.702118	11.973237
314.870178	12.070585
315.038239	12.164618
315.206268	12.245209
315.374298	12.346464
315.542328	12.454572
315.710358	12.541957
315.878357	12.654014
316.046387	12.729559
316.214386	12.831992
316.382385	12.939314
316.550385	13.036546
316.718353	13.136060
316.886353	13.228397
317.054321	13.328675
317.222290	13.430748
317.390259	13.555522
317.558197	13.643716
317.726135	13.739011
317.894104	13.830378
318.062012	13.931985
318.229950	14.012903
318.397888	14.117974
318.565796	14.224072
318.733704	14.303390
318.901611	14.377770
319.069519	14.476886
319.237396	14.552567
319.405304	14.651839
319.573181	14.762278
319.741058	14.819997
319.908905	14.889492
320.076782	14.962550
320.244629	15.056677
320.412476	15.126866
320.580322	15.211341
320.748169	15.267305
320.915985	15.360198
321.083801	15.468493
321.251617	15.551849
321.419434	15.626377
321.587250	15.722083
321.755035	15.775162
321.922821	15.859054
322.090607	15.957144
322.258392	16.037860
322.426178	16.119449
322.593933	16.211043
322.761719	16.268390
322.929474	16.316774
323.097198	16.412720
323.264954	16.493207
323.432678	16.569183
323.600403	16.642598
323.768127	16.716714
323.935852	16.778026
324.103577	16.859654
324.271271	16.934367
324.438965	16.991596
324.606659	17.070789
324.774353	17.133603
324.942047	17.196632
325.109711	17.262889
325.277374	17.337137
325.445038	17.400762
325.612701	17.456155
325.780334	17.500085
325.947968	17.549476
326.115631	17.622376
326.283234	17.700428
326.450867	17.764664
326.618500	17.838474
326.786102	17.905139
326.953705	17.955396
327.121307	18.020632
327.288879	18.086496
327.456482	18.151988
327.624054	18.205641
327.791626	18.254539
327.959198	18.307749
328.126770	18.379284
328.294312	18.448075
328.461853	18.530826
328.629395	18.574690
328.796936	18.614660
328.964478	18.687238
329.131989	18.773147
329.299500	18.838251
329.467010	18.914333
329.634521	18.982480
329.802002	19.031830
329.969513	19.098839
330.136993	19.165331
330.304474	19.235912
330.471954	19.286612
330.639404	19.344995
330.806854	19.368997
330.974335	19.442080
331.141754	19.517194
331.309204	19.586481
331.476654	19.637364
331.644073	19.713061
331.811493	19.754994
331.978912	19.819279
332.146332	19.876472
332.313721	19.929187
332.481110	19.972372
332.648499	20.044156
332.815887	20.081826
332.983276	20.134895
333.150635	20.191844
333.317993	20.232946
333.485352	20.293404
333.652710	20.329053
333.820068	20.395783
333.987396	20.457012
334.154724	20.528689
334.322052	20.555650
334.489380	20.586778
334.656708	20.617546
334.824005	20.657669
334.991302	20.654552
335.158600	20.698689
335.325897	20.727559
335.493164	20.789110
335.660431	20.844307
335.827728	20.886300
335.994965	20.910177
336.162231	20.953719
336.329498	21.002170
336.496735	21.037669
336.663971	21.064003
336.831207	21.087317
336.998413	21.149331
337.165649	21.193598
337.332855	21.211789
337.500061	21.255594
337.667267	21.288237
337.834442	21.330657
338.001648	21.372464
338.168823	21.416612
338.335999	21.481606
338.503174	21.524248
338.670319	21.569955
338.837494	21.615167
339.004639	21.654760
339.171783	21.695433
339.338898	21.729413
339.506042	21.774993
339.673157	21.805057
339.840271	21.849867
340.007385	21.905727
340.174500	21.939796
340.341583	21.974834
340.508667	22.006304
340.675751	22.057153
340.842834	22.086995
341.009918	22.149772
341.176971	22.196862
341.344055	22.237938
341.511108	22.277159
341.678131	22.314519
341.845184	22.345705
342.012207	22.386480
342.179230	22.418791
342.346252	22.447397
342.513275	22.481505
342.680298	22.522798
342.847290	22.554045
343.014282	22.562630
343.181274	22.593503
343.348267	22.618793
343.515228	22.654301
343.682190	22.668541
343.849152	22.691598
344.016113	22.724464
344.183075	22.763228
344.350006	22.785661
344.516968	22.811584
344.683899	22.855493
344.850800	22.868982
345.017731	22.899233
345.184631	22.924521
345.351532	22.945758
345.518433	22.978814
345.685333	23.012165
345.852234	23.021385
346.019104	23.067826
346.185974	23.082307
346.352844	23.120289
346.519714	23.148853
346.686554	23.182143
346.853424	23.206318
347.020264	23.242574
347.187073	23.268077
347.353912	23.282758
347.520721	23.304048
347.687561	23.330069
347.854370	23.350682
348.021179	23.356973
348.187958	23.393868
348.354736	23.406627
348.521545	23.449640
348.688324	23.476152
348.855072	23.485005
349.021851	23.498273
349.188599	23.532979
349.355347	23.539764
349.522095	23.565740
349.688843	23.599528
349.855560	23.613328
350.022308	23.628359
350.189026	23.654902
350.355743	23.671476
350.522430	23.688308
350.689148	23.725700
350.855835	23.746681
351.022522	23.758834
351.189209	23.784606
351.355865	23.819027
351.522522	23.852452
351.689209	23.891996
351.855865	23.894426
352.022491	23.919858
352.189148	23.932812
352.355774	23.959263
352.522400	23.985873
352.689026	24.010423
352.855652	24.027795
353.022247	24.060324
353.188843	24.088250
353.355438	24.113642
353.522034	24.131899
353.688629	24.149279
353.855194	24.176375
354.021759	24.201498
354.188324	24.218428
354.354889	24.252230
354.521454	24.285888
354.687988	24.308879
354.854523	24.325515
355.021057	24.335600
355.187592	24.363696
355.354095	24.379638
355.520599	24.411136
355.687134	24.437315
355.853607	24.456747
356.020111	24.493027
356.186584	24.512813
356.353088	24.523054
356.519562	24.540635
356.686005	24.570589
356.852478	24.585952
357.018921	24.618874
357.185364	24.626274
357.351807	24.631378
357.518250	24.659250
357.684692	24.677672
357.851105	24.675620
358.017517	24.692192
358.183929	24.699246
358.350311	24.737886
358.516724	24.741451
358.683105	24.761838
358.849487	24.775329
359.015869	24.799191
359.182220	24.815046
359.348602	24.814321
359.514954	24.833369
359.681305	24.851181
359.847656	24.857427
360.013977	24.872854
360.180298	24.890074
360.346649	24.906533
360.512939	24.937444
360.679260	24.962654
360.845581	24.978168
361.011871	24.974034
361.178162	25.003787
361.344452	25.017618
361.510712	25.039176
361.677002	25.030986
361.843262	25.065621
362.009521	25.092653
362.175751	25.103156
362.342010	25.123353
362.508240	25.148558
362.674469	25.170818
362.840698	25.192250
363.006927	25.192106
363.173126	25.221692
363.339325	25.221650
363.505524	25.252201
363.671722	25.258756
363.837921	25.291620
364.004089	25.296507
364.170258	25.315254
364.336426	25.347882
364.502594	25.354966
364.668762	25.366298
364.834900	25.370496
365.001038	25.383930
365.167175	25.390645
365.333282	25.405820
365.499420	25.432161
365.665527	25.435384
365.831635	25.432662
365.997742	25.456092
366.163818	25.472424
366.329926	25.501130
366.496002	25.513097
366.662079	25.525474
366.828156	25.527997
366.994202	25.550295
367.160248	25.535128
367.326294	25.551485
367.492340	25.558864
367.658386	25.566671
367.824402	25.578536
367.990448	25.597921
368.156464	25.619946
368.322449	25.657065
368.488464	25.663532
368.654449	25.658634
368.820435	25.660614
368.986420	25.670686
369.152405	25.707180
369.318390	25.716319
369.484344	25.708998
369.650299	25.700157
369.816254	25.721373
369.982178	25.742581
370.148132	25.762586
370.314056	25.771862
370.479980	25.800859
370.645905	25.823658
370.811798	25.842424
370.977692	25.855117
371.143616	25.875754
371.309479	25.898935
371.475372	25.913762
371.641266	25.927420
371.807129	25.952884
371.972992	25.969351
372.138855	25.983856
372.304688	25.997642
372.470551	25.992503
372.636383	25.994862
372.802216	26.036808
372.968018	26.059764
373.133850	26.074233
373.299652	26.096139
373.465454	26.103608
373.631256	26.126661
373.797058	26.130930
373.962830	26.132716
374.128601	26.134912
374.294373	26.152423
374.460144	26.159965
374.625916	26.178473
374.791656	26.189176
374.957397	26.179375
375.123138	26.185944
375.288879	26.209050
375.454590	26.235287
375.620331	26.222102
375.786041	26.245807
375.951721	26.267243
376.117432	26.257888
376.283112	26.286894
376.448822	26.298137
376.614471	26.298646
376.780151	26.328278
376.945831	26.326843
377.111481	26.338523
377.277130	26.375150
377.442780	26.392383
377.608429	26.398948
377.774048	26.410910
377.939667	26.392506
378.105286	26.402386
378.270905	26.423596
378.436523	26.432016
378.602112	26.440624
378.767700	26.434983
378.933289	26.467792
379.098877	26.455106
379.264435	26.457657
379.429993	26.471934
379.595551	26.468138
379.761108	26.457175
379.926666	26.462417
380.092194	26.461928
380.257721	26.479128
380.423248	26.488470
380.588776	26.466077
380.754272	26.462109
380.919800	26.473197
381.085297	26.484697
381.250793	26.511820
381.416260	26.513411
381.581757	26.530553
381.747223	26.544959
381.912689	26.551535
382.078125	26.574493
382.243591	26.594983
382.409027	26.618790
382.574463	26.633627
382.739899	26.665462
382.905334	26.669568
383.070740	26.696748
383.236176	26.712520
383.401581	26.727649
383.566956	26.726247
383.732361	26.742472
383.897736	26.765376
384.063110	26.784475
384.228485	26.809575
384.393860	26.811813
384.559204	26.835333
384.724579	26.856943
384.889923	26.860295
385.055237	26.872630
385.220581	26.873284
385.385895	26.878987
385.551239	26.895077
385.716522	26.912919
385.881836	26.933754
386.047150	26.921814
386.212433	26.953055
386.377716	26.980515
386.542999	26.990376
386.708252	26.996422
386.873535	27.022594
387.038788	27.036691
387.204041	27.029517
387.369293	27.056369
387.534515	27.074734
387.699738	27.086694
387.864960	27.104764
388.030182	27.111341
388.195404	27.090889
388.360596	27.106785
388.525787	27.110223
388.690979	27.136531
388.856171	27.135891
389.021362	27.141256
389.186523	27.140902
389.351685	27.163873
389.516846	27.155842
389.682007	27.163454
389.847137	27.167341
390.012268	27.174801
390.177399	27.180928
390.342529	27.194292
390.507629	27.194197
390.672760	27.163071
390.837860	27.135562
391.002960	27.140119
391.168030	27.109486
391.333130	27.121706
391.498199	27.155679
391.663269	27.175449
391.828339	27.204997
391.993378	27.212258
392.158447	27.221878
392.323486	27.225409
392.488525	27.228552
392.653534	27.238672
392.818573	27.255754
392.983582	27.226910
393.148590	27.254361
393.313599	27.247948
393.478577	27.260894
393.643585	27.255675
393.808563	27.292590
393.973541	27.329618
394.138489	27.358853
394.303467	27.377765
394.468414	27.395265
394.633362	27.413009
394.798309	27.419363
394.963226	27.417693
395.128174	27.401309
395.293091	27.395911
395.458008	27.402044
395.622894	27.418200
395.787811	27.434388
395.952698	27.424629
396.117584	27.433377
396.282471	27.457342
396.447327	27.448152
396.612213	27.477731
396.777069	27.489432
396.941925	27.509005
397.106750	27.512389
397.271606	27.519269
397.436432	27.526960
397.601257	27.520216
397.766083	27.522589
397.930878	27.526653
398.095703	27.541195
398.260498	27.530098
398.425293	27.565347
398.590057	27.564611
398.754852	27.572313
398.919617	27.585515
399.084381	27.592333
399.249146	27.617453
399.413879	27.625702
399.578644	27.637449
399.743378	27.660551
399.908112	27.667436
400.072815	27.664385
400.237549	27.667780
400.402252	27.672083
400.566956	27.668865
400.731659	27.681071
400.896332	27.704509
401.061035	27.721365
401.225708	27.732924
401.390381	27.724593
401.555023	27.739653
401.719696	27.744576
401.884338	27.760170
402.048981	27.761602
402.213623	27.754559
402.378235	27.763939
402.542847	27.773944
402.707489	27.761378
402.872070	27.784165
403.036682	27.775081
403.201294	27.786666
403.365875	27.792105
403.530457	27.808485
403.695007	27.810925
403.859589	27.847236
404.024139	27.862015
404.188690	27.846692
404.353241	27.848675
404.517792	27.855860
404.682312	27.886766
404.846832	27.896322
405.011353	27.911182
405.175873	27.919398
405.340393	27.947664
405.504883	27.949143
405.669373	27.968608
405.833862	27.967879
405.998322	27.995323
406.162811	28.006221
406.327271	28.031277
406.491730	28.026419
406.656189	28.037166
406.820618	28.034254
406.985046	28.050672
407.149475	28.049694
407.313904	28.034093
407.478333	28.053914
407.642731	28.071304
407.807129	28.052424
407.971527	28.054179
408.135925	28.061105
408.300293	28.044223
408.464661	28.037817
408.629028	28.039808
408.793396	28.049648
408.957764	28.042072
409.122101	28.050062
409.286438	28.058996
409.450775	28.054376
409.615112	28.057249
409.779419	28.052595
409.943726	28.064546
410.108032	28.080224
410.272339	28.089548
410.436646	28.091731
410.600922	28.099505
410.765198	28.114701
410.929474	28.111745
411.093750	28.142777
411.257996	28.139789
411.422241	28.166914
411.586487	28.190002
411.750732	28.205620
411.914948	28.220666
412.079193	28.222671
412.243408	28.243056
412.407623	28.254556
412.571808	28.245656
412.735992	28.256994
412.900208	28.255023
413.064392	28.260335
413.228546	28.252812
413.392731	28.273041
413.556885	28.284314
413.721039	28.293826
413.885193	28.313861
414.049316	28.314557
414.213470	28.325890
414.377594	28.318499
414.541718	28.342925
414.705811	28.330429
414.869934	28.337264
415.034027	28.343117
415.198120	28.352783
415.362213	28.398488
415.526276	28.403845
415.690338	28.397476
415.854431	28.445671
416.018463	28.452355
416.182526	28.463452
416.346558	28.480442
416.510620	28.497117
416.674622	28.489423
416.838654	28.486027
417.002686	28.492855
417.166687	28.500630
417.330688	28.527101
417.494690	28.542456
417.658661	28.547949
417.822662	28.539679
417.986633	28.561236
418.150604	28.566974
418.314545	28.588809
418.478516	28.589043
418.642456	28.562071
418.806396	28.572245
418.970337	28.585265
419.134247	28.583475
419.298187	28.563974
419.462097	28.582573
419.625977	28.606366
419.789886	28.612973
419.953766	28.616124
420.117676	28.642250
420.281555	28.664122
420.445404	28.661981
420.609283	28.666315
420.773132	28.674859
420.936981	28.701285
421.100830	28.713735
421.264648	28.716452
421.428497	28.731075
421.592316	28.737802
421.756134	28.720613
421.919922	28.753252
422.083740	28.747014
422.247528	28.765895
422.411316	28.766950
422.575104	28.796267
422.738861	28.792099
422.902618	28.802133
423.066406	28.820244
423.230133	28.823472
423.393890	28.818780
423.557617	28.811747
423.721344	28.837685
423.885071	28.860331
424.048798	28.870373
424.212524	28.869137
424.376221	28.872058
424.539917	28.860471
424.703583	28.855276
424.867279	28.868558
425.030945	28.892296
425.194611	28.907063
425.358276	28.913003
425.521942	28.926482
425.685577	28.942418
425.849213	28.960922
426.012848	28.982590
426.176483	28.983090
426.340118	28.993972
426.503723	29.005915
426.667328	28.997653
426.830933	29.017883
426.994507	29.038976
427.158112	29.015291
427.321686	29.023895
427.485229	29.021336
427.648804	29.036953
427.812378	29.078796
427.975922	29.093930
428.139465	29.107257
428.302979	29.113753
428.466522	29.107771
428.630035	29.123838
428.793549	29.128065
428.957062	29.106415
429.120575	29.126369
429.284058	29.130766
429.447540	29.145202
429.611023	29.155186
429.774506	29.158966
429.937958	29.189985
430.101410	29.203787
430.264862	29.184832
430.428314	29.186568
430.591736	29.177105
430.755188	29.195929
430.918610	29.205744
431.082031	29.203939
431.245422	29.214461
431.408813	29.230613
431.572235	29.253971
431.735596	29.263819
431.898987	29.268989
432.062378	29.281000
432.225739	29.302822
432.389099	29.312724
432.552429	29.334953
432.715790	29.365799
432.879120	29.359676
433.042450	29.385327
433.205780	29.417545
433.369110	29.427545
433.532410	29.442662
433.695709	29.505683
433.859009	29.537187
434.022308	29.556216
434.185577	29.589789
434.348846	29.613909
434.512115	29.599015
434.675385	29.586220
434.838654	29.590655
435.001892	29.599088
435.165131	29.603405
435.328369	29.612969
435.491577	29.645082
435.654816	29.624317
435.818024	29.615939
435.981232	29.604740
436.144409	29.619731
436.307617	29.639343
436.470795	29.637142
436.633972	29.638134
436.797119	29.679309
436.960297	29.656782
437.123444	29.667441
437.286591	29.695520
437.449738	29.652837
437.612885	29.646579
437.776001	29.674574
437.939117	29.713213
438.102234	29.721877
438.265350	29.731361
438.428436	29.724997
438.591522	29.732335
438.754608	29.716425
438.917694	29.720721
439.080750	29.730102
439.243835	29.719518
439.406891	29.731727
439.569916	29.729156
439.732971	29.720779
439.895996	29.735057
440.059021	29.714379
440.222046	29.723856
440.385071	29.743185
440.548065	29.738678
440.711060	29.779892
440.874054	29.792133
441.037048	29.790804
441.200012	29.778182
441.363007	29.792610
441.525970	29.822710
441.688904	29.853923
441.851868	29.853155
442.014801	29.851599
442.177734	29.873239
442.340668	29.889312
442.503601	29.922842
442.666504	29.915513
442.829407	29.914841
442.992310	29.933387
443.155212	29.946878
443.318085	29.953408
443.480957	29.953446
443.643829	29.955973
443.806702	29.959578
443.969543	29.966446
444.132416	29.971346
444.295258	30.007345
444.458069	30.022789
444.620911	30.013699
444.783722	29.981507
444.946533	30.005278
445.109344	30.027808
445.272156	30.041333
445.434937	30.047403
445.597717	30.053678
445.760498	30.057198
445.923279	30.085917
446.086060	30.107623
446.248810	30.104613
446.411560	30.130757
446.574280	30.152322
446.737030	30.169829
446.899750	30.175554
447.062469	30.175471
447.225189	30.199059
447.387909	30.203989
447.550598	30.218514
447.713287	30.241577
447.875977	30.281065
448.038666	30.326791
448.201324	30.330999
448.363983	30.343955
448.526642	30.363410
448.689301	30.377866
448.851929	30.374500
449.014587	30.377304
449.177216	30.373827
449.339813	30.377090
449.502441	30.392588
449.665039	30.360945
449.827637	30.356407
449.990234	30.380736
450.152832	30.396259
450.315399	30.420113
450.477966	30.410159
450.640533	30.423726
450.803101	30.434275
450.965637	30.414007
451.128174	30.396140
451.290710	30.390969
451.453247	30.387447
451.615784	30.367803
451.778290	30.385505
451.940796	30.394309
452.103302	30.435049
452.265778	30.442389
452.428253	30.457479
452.590729	30.470201
452.753204	30.482110
452.915680	30.494949
453.078125	30.502719
453.240570	30.496603
453.403015	30.484921
453.565460	30.513532
453.727875	30.513390
453.890289	30.527718
454.052704	30.520719
454.215118	30.556660
454.377533	30.557966
454.539917	30.566108
454.702301	30.581474
454.864685	30.629734
455.027039	30.644250
455.189392	30.660307
455.351746	30.661398
455.514099	30.690815
455.676453	30.705292
455.838776	30.693252
456.001099	30.695626
456.163422	30.714294
456.325745	30.692740
456.488037	30.697116
456.650330	30.677236
456.812622	30.659513
456.974915	30.689246
457.137177	30.694747
