# Wavelength (nm)	Smoothed Intensity
299.383362	5.298820
299.552002	5.416411
299.720612	5.535701
299.889191	5.625052
300.057800	5.740845
300.226379	5.861490
300.394958	5.984803
300.563538	6.102152
300.732117	6.218311
300.900696	6.330433
301.069244	6.442222
301.237793	6.580153
301.406342	6.690453
301.574890	6.817965
301.743408	6.945066
301.911957	7.051536
302.080475	7.187354
302.248993	7.305560
302.417480	7.440129
302.585999	7.570068
302.754486	7.714697
302.922974	7.849788
303.091461	7.979565
303.259949	8.112999
303.428436	8.248695
303.596893	8.363590
303.765350	8.485956
303.933807	8.630570
304.102264	8.769019
304.270691	8.926596
304.439117	9.070956
304.607574	9.187515
304.776001	9.308001
304.944397	9.452894
305.112823	9.576593
305.281219	9.715801
305.449615	9.857857
305.618011	10.000496
305.786407	10.146851
305.954773	10.285659
306.123169	10.421022
306.291534	10.545555
306.459900	10.688246
306.628235	10.833013
306.796600	10.976832
306.964935	11.123165
307.133270	11.280090
307.301605	11.404765
307.469940	11.556590
307.638245	11.675734
307.806580	11.825390
307.974884	11.984671
308.143188	12.132442
308.311462	12.276465
308.479767	12.424089
308.648041	12.574599
308.816315	12.708819
308.984589	12.846838
309.152863	12.965300
309.321106	13.093366
309.489380	13.233869
309.657623	13.379751
309.825867	13.521271
309.994080	13.653099
310.162323	13.798001
310.330536	13.935572
310.498749	14.069180
310.666962	14.210604
310.835175	14.336720
311.003357	14.482735
311.171539	14.618831
311.339752	14.753508
311.507904	14.888429
311.676086	15.014934
311.844238	15.150752
312.012421	15.279592
312.180573	15.421184
312.348724	15.551934
312.516846	15.685955
312.684998	15.832828
312.853119	15.964504
313.021240	16.101192
313.189362	16.239643
313.357452	16.368992
313.525574	16.493631
313.693665	16.631504
313.861755	16.750138
314.029846	16.858312
314.197937	16.985902
314.365997	17.103081
314.534058	17.216405
314.702118	17.331611
314.870178	17.470013
315.038239	17.578922
315.206268	17.696084
315.374298	17.810855
315.542328	17.937074
315.710358	18.063463
315.878357	18.190921
316.046387	18.295124
316.214386	18.412139
316.382385	18.540815
316.550385	18.654565
316.718353	18.781343
316.886353	18.892587
317.054321	18.996558
317.222290	19.111456
317.390259	19.257743
317.558197	19.379099
317.726135	19.471847
317.894104	19.580161
318.062012	19.696090
318.229950	19.791560
318.397888	19.931077
318.565796	20.036607
318.733704	20.143152
318.901611	20.240089
319.069519	20.324667
319.237396	20.427544
319.405304	20.532263
319.573181	20.616120
319.741058	20.688692
319.908905	20.780120
320.076782	20.849420
320.244629	20.953300
320.412476	21.021669
320.580322	21.107660
320.748169	21.194590
320.915985	21.288346
321.083801	21.403615
321.251617	21.502738
321.419434	21.600416
321.587250	21.698220
321.755035	21.761655
321.922821	21.866469
322.090607	21.943148
322.258392	22.023465
322.426178	22.133693
322.593933	22.232711
322.761719	22.308927
322.929474	22.404003
323.097198	22.508241
323.264954	22.592244
323.432678	22.687631
323.600403	22.771364
323.768127	22.873301
323.935852	22.975263
324.103577	23.042003
324.271271	23.126803
324.438965	23.209944
324.606659	23.287729
324.774353	23.354483
324.942047	23.418500
325.109711	23.509662
325.277374	23.582019
325.445038	23.680261
325.612701	23.759946
325.780334	23.821255
325.947968	23.892819
326.115631	23.975808
326.283234	24.057100
326.450867	24.114572
326.618500	24.184045
326.786102	24.262751
326.953705	24.314668
327.121307	24.393671
327.288879	24.465527
327.456482	24.551064
327.624054	24.608319
327.791626	24.680819
327.959198	24.747520
328.126770	24.825549
328.294312	24.899655
328.461853	24.976017
328.629395	25.039738
328.796936	25.086272
328.964478	25.154442
329.131989	25.236266
329.299500	25.310342
329.467010	25.382558
329.634521	25.439193
329.802002	25.531565
329.969513	25.601971
330.136993	25.659415
330.304474	25.748734
330.471954	25.812994
330.639404	25.867375
330.806854	25.913828
330.974335	25.973929
331.141754	26.033242
331.309204	26.107469
331.476654	26.172515
331.644073	26.233259
331.811493	26.271041
331.978912	26.336806
332.146332	26.401229
332.313721	26.465956
332.481110	26.514475
332.648499	26.577544
332.815887	26.615252
332.983276	26.677308
333.150635	26.711100
333.317993	26.769328
333.485352	26.850668
333.652710	26.886347
333.820068	26.928246
333.987396	26.988173
334.154724	27.042262
334.322052	27.102896
334.489380	27.138915
334.656708	27.182293
334.824005	27.223127
334.991302	27.261547
335.158600	27.303020
335.325897	27.331925
335.493164	27.395317
335.660431	27.434341
335.827728	27.481038
335.994965	27.504802
336.162231	27.550340
336.329498	27.597424
336.496735	27.636766
336.663971	27.656229
336.831207	27.669976
336.998413	27.713891
337.165649	27.771901
337.332855	27.793019
337.500061	27.849639
337.667267	27.885914
337.834442	27.939052
338.001648	27.969111
338.168823	28.008807
338.335999	28.075489
338.503174	28.119207
338.670319	28.171793
338.837494	28.200203
339.004639	28.242102
339.171783	28.278314
339.338898	28.342499
339.506042	28.406735
339.673157	28.435029
339.840271	28.483919
340.007385	28.534570
340.174500	28.593657
340.341583	28.631903
340.508667	28.672178
340.675751	28.716042
340.842834	28.731399
341.009918	28.767305
341.176971	28.817735
341.344055	28.859603
341.511108	28.904183
341.678131	28.937112
341.845184	28.983404
342.012207	29.014605
342.179230	29.048814
342.346252	29.067759
342.513275	29.102974
342.680298	29.116878
342.847290	29.156604
343.014282	29.185977
343.181274	29.218098
343.348267	29.248398
343.515228	29.278813
343.682190	29.312786
343.849152	29.327705
344.016113	29.374772
344.183075	29.411139
344.350006	29.443014
344.516968	29.458783
344.683899	29.504170
344.850800	29.537192
345.017731	29.559946
345.184631	29.583216
345.351532	29.617756
345.518433	29.648128
345.685333	29.691570
345.852234	29.702200
346.019104	29.745946
346.185974	29.741290
346.352844	29.779875
346.519714	29.808649
346.686554	29.838624
346.853424	29.859484
347.020264	29.874049
347.187073	29.902836
347.353912	29.908603
347.520721	29.952178
347.687561	29.975717
347.854370	30.001418
348.021179	30.006678
348.187958	30.035618
348.354736	30.050784
348.521545	30.085260
348.688324	30.114377
348.855072	30.164242
349.021851	30.172126
349.188599	30.217271
349.355347	30.229083
349.522095	30.276263
349.688843	30.300325
349.855560	30.321956
350.022308	30.367736
350.189026	30.394667
350.355743	30.412049
350.522430	30.440199
350.689148	30.466474
350.855835	30.476265
351.022522	30.507956
351.189209	30.530495
351.355865	30.561528
351.522522	30.577965
351.689209	30.610010
351.855865	30.630210
352.022491	30.665443
352.189148	30.661421
352.355774	30.706189
352.522400	30.722294
352.689026	30.752862
352.855652	30.760952
353.022247	30.785873
353.188843	30.809692
353.355438	30.809622
353.522034	30.830559
353.688629	30.870981
353.855194	30.894779
354.021759	30.938740
354.188324	30.961132
354.354889	30.991461
354.521454	31.023795
354.687988	31.033181
354.854523	31.049712
355.021057	31.061360
355.187592	31.097658
355.354095	31.110009
355.520599	31.137166
355.687134	31.159205
355.853607	31.187541
356.020111	31.207103
356.186584	31.239127
356.353088	31.256099
356.519562	31.264692
356.686005	31.297174
356.852478	31.310908
357.018921	31.330380
357.185364	31.333802
357.351807	31.321527
357.518250	31.324769
357.684692	31.338447
357.851105	31.352183
358.017517	31.388358
358.183929	31.406665
358.350311	31.430738
358.516724	31.437569
358.683105	31.444256
358.849487	31.460756
359.015869	31.481931
359.182220	31.492041
359.348602	31.515521
359.514954	31.530143
359.681305	31.546337
359.847656	31.569237
360.013977	31.581449
360.180298	31.592633
360.346649	31.614675
360.512939	31.634180
360.679260	31.677685
360.845581	31.710732
361.011871	31.713479
361.178162	31.734264
361.344452	31.747560
361.510712	31.780984
361.677002	31.798154
361.843262	31.807794
362.009521	31.840707
362.175751	31.857837
362.342010	31.866751
362.508240	31.892699
362.674469	31.904972
362.840698	31.922341
363.006927	31.934034
363.173126	31.952134
363.339325	31.953525
363.505524	32.003713
363.671722	32.004128
363.837921	32.039389
364.004089	32.046332
364.170258	32.075519
364.336426	32.111874
364.502594	32.128650
364.668762	32.150931
364.834900	32.149753
365.001038	32.180500
365.167175	32.209756
365.333282	32.223682
365.499420	32.242688
365.665527	32.236870
365.831635	32.234485
365.997742	32.255741
366.163818	32.275534
366.329926	32.289665
366.496002	32.298972
366.662079	32.336833
366.828156	32.324375
366.994202	32.353313
367.160248	32.366014
367.326294	32.396375
367.492340	32.397665
367.658386	32.404683
367.824402	32.418459
367.990448	32.433604
368.156464	32.443790
368.322449	32.447548
368.488464	32.441691
368.654449	32.445485
368.820435	32.448428
368.986420	32.482287
369.152405	32.524512
369.318390	32.533445
369.484344	32.542982
369.650299	32.569407
369.816254	32.582975
369.982178	32.597291
370.148132	32.618548
370.314056	32.635317
370.479980	32.660749
370.645905	32.665019
370.811798	32.678949
370.977692	32.692591
371.143616	32.707781
371.309479	32.720252
371.475372	32.742414
371.641266	32.764383
371.807129	32.790550
371.972992	32.814985
372.138855	32.838583
372.304688	32.853354
372.470551	32.847323
372.636383	32.850616
372.802216	32.855443
372.968018	32.868055
373.133850	32.888363
373.299652	32.898785
373.465454	32.917839
373.631256	32.930908
373.797058	32.932496
373.962830	32.948727
374.128601	32.961583
374.294373	32.972305
374.460144	32.979766
374.625916	32.989886
374.791656	32.993337
374.957397	32.992196
375.123138	32.997423
375.288879	32.995637
375.454590	33.004498
375.620331	33.005611
375.786041	33.041760
375.951721	33.058037
376.117432	33.079539
376.283112	33.091555
376.448822	33.108876
376.614471	33.103709
376.780151	33.110609
376.945831	33.117911
377.111481	33.124825
377.277130	33.131258
377.442780	33.157136
377.608429	33.175696
377.774048	33.180255
377.939667	33.174111
378.105286	33.182861
378.270905	33.206563
378.436523	33.232387
378.602112	33.235445
378.767700	33.236496
378.933289	33.254739
379.098877	33.248026
379.264435	33.256756
379.429993	33.258595
379.595551	33.255993
379.761108	33.250693
379.926666	33.258200
380.092194	33.261732
380.257721	33.261905
380.423248	33.263467
380.588776	33.275312
380.754272	33.262831
380.919800	33.263978
381.085297	33.279890
381.250793	33.305935
381.416260	33.331384
381.581757	33.335428
381.747223	33.348355
381.912689	33.363483
382.078125	33.394326
382.243591	33.414149
382.409027	33.418802
382.574463	33.445330
382.739899	33.472186
382.905334	33.485340
383.070740	33.515410
383.236176	33.533611
383.401581	33.557009
383.566956	33.586203
383.732361	33.611350
383.897736	33.628558
384.063110	33.648761
384.228485	33.666346
384.393860	33.678395
384.559204	33.688498
384.724579	33.685004
384.889923	33.688289
385.055237	33.689989
385.220581	33.717326
385.385895	33.717385
385.551239	33.706409
385.716522	33.729112
385.881836	33.740566
386.047150	33.736345
386.212433	33.778655
386.377716	33.783915
386.542999	33.802168
386.708252	33.799514
386.873535	33.820581
387.038788	33.841478
387.204041	33.834613
387.369293	33.849367
387.534515	33.860554
387.699738	33.878482
387.864960	33.886731
388.030182	33.910107
388.195404	33.931253
388.360596	33.952267
388.525787	33.937031
388.690979	33.963281
388.856171	33.989023
389.021362	33.994418
389.186523	33.999466
389.351685	34.009379
389.516846	34.003817
389.682007	34.023759
389.847137	34.029055
390.012268	34.049498
390.177399	34.052015
390.342529	34.071804
390.507629	34.084466
390.672760	34.071388
390.837860	34.067334
391.002960	34.083937
391.168030	34.097882
391.333130	34.114815
391.498199	34.118550
391.663269	34.138485
391.828339	34.163351
391.993378	34.170290
392.158447	34.203271
392.323486	34.215063
392.488525	34.217727
392.653534	34.227086
392.818573	34.249696
392.983582	34.238323
393.148590	34.262419
393.313599	34.254258
393.478577	34.265561
393.643585	34.263095
393.808563	34.289716
393.973541	34.308747
394.138489	34.345254
394.303467	34.348024
394.468414	34.365660
394.633362	34.355514
394.798309	34.364052
394.963226	34.359588
395.128174	34.361502
395.293091	34.348146
395.458008	34.335574
395.622894	34.345513
395.787811	34.368273
395.952698	34.392221
396.117584	34.389138
396.282471	34.406266
396.447327	34.406988
396.612213	34.425856
396.777069	34.447243
396.941925	34.451346
397.106750	34.463800
397.271606	34.498011
397.436432	34.499596
397.601257	34.510498
397.766083	34.509891
397.930878	34.541951
398.095703	34.564158
398.260498	34.567634
398.425293	34.578212
398.590057	34.599970
398.754852	34.607964
398.919617	34.628252
399.084381	34.633860
399.249146	34.649116
399.413879	34.670746
399.578644	34.675964
399.743378	34.718524
399.908112	34.749458
400.072815	34.753825
400.237549	34.763858
400.402252	34.750096
400.566956	34.737785
400.731659	34.734403
400.896332	34.741753
401.061035	34.750923
401.225708	34.761363
401.390381	34.755034
401.555023	34.774224
401.719696	34.800589
401.884338	34.823100
402.048981	34.825125
402.213623	34.805560
402.378235	34.829108
402.542847	34.837552
402.707489	34.832447
402.872070	34.850631
403.036682	34.827261
403.201294	34.832793
403.365875	34.834006
403.530457	34.839334
403.695007	34.851465
403.859589	34.890952
404.024139	34.924960
404.188690	34.923853
404.353241	34.934876
404.517792	34.956418
404.682312	34.971300
404.846832	34.974232
405.011353	34.988083
405.175873	34.991640
405.340393	35.007907
405.504883	35.026185
405.669373	35.025585
405.833862	35.043275
405.998322	35.073649
406.162811	35.079221
406.327271	35.104729
406.491730	35.098412
406.656189	35.090504
406.820618	35.089112
406.985046	35.097612
407.149475	35.093177
407.313904	35.094709
407.478333	35.103996
407.642731	35.110922
407.807129	35.094469
407.971527	35.114289
408.135925	35.108411
408.300293	35.110416
408.464661	35.100858
408.629028	35.136162
408.793396	35.126544
408.957764	35.128168
409.122101	35.121096
409.286438	35.101208
409.450775	35.109077
409.615112	35.106490
409.779419	35.098248
409.943726	35.098197
410.108032	35.111279
410.272339	35.119458
410.436646	35.114801
410.600922	35.101005
410.765198	35.125090
410.929474	35.142349
411.093750	35.153370
411.257996	35.153201
411.422241	35.179694
411.586487	35.167274
411.750732	35.185749
411.914948	35.180677
412.079193	35.223196
412.243408	35.256497
412.407623	35.263671
412.571808	35.258350
412.735992	35.265746
412.900208	35.272029
413.064392	35.274749
413.228546	35.296371
413.392731	35.322641
413.556885	35.365685
413.721039	35.393880
413.885193	35.417246
414.049316	35.414131
414.213470	35.415968
414.377594	35.425042
414.541718	35.435084
414.705811	35.438804
414.869934	35.471800
415.034027	35.485504
415.198120	35.471879
415.362213	35.490161
415.526276	35.471316
415.690338	35.478940
415.854431	35.506222
416.018463	35.519546
416.182526	35.544536
416.346558	35.583081
416.510620	35.609661
416.674622	35.614983
416.838654	35.608113
417.002686	35.631833
417.166687	35.648504
417.330688	35.668949
417.494690	35.700791
417.658661	35.700782
417.822662	35.714982
417.986633	35.710308
418.150604	35.702249
418.314545	35.693659
418.478516	35.703265
418.642456	35.666778
418.806396	35.692698
418.970337	35.705883
419.134247	35.744294
419.298187	35.751991
419.462097	35.720612
419.625977	35.737159
419.789886	35.743831
419.953766	35.755819
420.117676	35.764926
420.281555	35.740462
420.445404	35.744630
420.609283	35.754457
420.773132	35.748391
420.936981	35.764297
421.100830	35.784106
421.264648	35.812833
421.428497	35.823328
421.592316	35.852597
421.756134	35.877489
421.919922	35.939051
422.083740	35.942865
422.247528	35.956060
422.411316	35.961309
422.575104	35.962877
422.738861	35.995846
422.902618	36.000036
423.066406	36.017698
423.230133	36.011475
423.393890	36.006145
423.557617	36.037645
423.721344	36.049051
423.885071	36.067474
424.048798	36.064745
424.212524	36.073867
424.376221	36.081120
424.539917	36.086179
424.703583	36.107121
424.867279	36.114443
425.030945	36.146411
425.194611	36.117335
425.358276	36.105318
425.521942	36.128825
425.685577	36.133420
425.849213	36.166244
426.012848	36.179133
426.176483	36.192447
426.340118	36.205617
426.503723	36.236480
426.667328	36.252560
426.830933	36.261685
426.994507	36.255736
427.158112	36.246352
427.321686	36.265992
427.485229	36.268298
427.648804	36.263396
427.812378	36.279196
427.975922	36.286612
428.139465	36.291976
428.302979	36.274027
428.466522	36.301392
428.630035	36.332269
428.793549	36.321450
428.957062	36.314554
429.120575	36.305011
429.284058	36.316935
429.447540	36.309117
429.611023	36.329691
429.774506	36.305903
429.937958	36.325833
430.101410	36.319730
430.264862	36.339614
430.428314	36.354831
430.591736	36.364765
430.755188	36.400325
430.918610	36.436531
431.082031	36.453604
431.245422	36.446518
431.408813	36.470256
431.572235	36.501236
431.735596	36.526024
431.898987	36.531532
432.062378	36.538176
432.225739	36.523362
432.389099	36.551564
432.552429	36.566778
432.715790	36.581081
432.879120	36.558132
433.042450	36.613770
433.205780	36.615879
433.369110	36.614438
433.532410	36.625064
433.695709	36.642872
433.859009	36.644621
434.022308	36.632171
434.185577	36.626231
434.348846	36.621159
434.512115	36.630118
434.675385	36.610137
434.838654	36.616035
435.001892	36.618255
435.165131	36.625724
435.328369	36.666562
435.491577	36.702433
435.654816	36.687265
435.818024	36.699281
435.981232	36.728760
436.144409	36.746675
436.307617	36.746915
436.470795	36.740110
436.633972	36.760303
436.797119	36.772262
436.960297	36.764528
437.123444	36.787385
437.286591	36.796346
437.449738	36.779828
437.612885	36.772533
437.776001	36.798250
437.939117	36.828537
438.102234	36.816687
438.265350	36.823146
438.428436	36.822464
438.591522	36.784632
438.754608	36.767149
438.917694	36.773257
439.080750	36.754523
439.243835	36.734606
439.406891	36.740293
439.569916	36.729382
439.732971	36.772552
439.895996	36.764104
440.059021	36.761260
440.222046	36.787595
440.385071	36.788159
440.548065	36.811746
440.711060	36.853119
440.874054	36.901608
441.037048	36.902403
441.200012	36.909136
441.363007	36.933665
441.525970	36.939620
441.688904	36.956566
441.851868	36.986167
442.014801	37.022092
442.177734	37.046228
442.340668	37.071072
442.503601	37.100352
442.666504	37.103616
442.829407	37.124933
442.992310	37.131384
443.155212	37.168957
443.318085	37.203679
443.480957	37.199145
443.643829	37.213358
443.806702	37.206852
443.969543	37.204988
444.132416	37.192928
444.295258	37.216418
444.458069	37.216781
444.620911	37.221528
444.783722	37.220691
444.946533	37.226982
445.109344	37.228927
445.272156	37.248067
445.434937	37.227015
445.597717	37.234119
445.760498	37.261564
445.923279	37.277590
446.086060	37.264142
446.248810	37.245906
446.411560	37.239682
446.574280	37.217601
446.737030	37.239220
446.899750	37.268615
447.062469	37.300354
447.225189	37.311654
447.387909	37.315335
447.550598	37.312940
447.713287	37.336729
447.875977	37.363346
448.038666	37.366928
448.201324	37.372480
448.363983	37.387178
448.526642	37.383320
448.689301	37.431771
448.851929	37.417234
449.014587	37.390007
449.177216	37.389698
449.339813	37.428662
449.502441	37.448311
449.665039	37.460086
449.827637	37.470954
449.990234	37.472433
450.152832	37.471758
450.315399	37.485339
450.477966	37.497028
450.640533	37.495770
450.803101	37.528558
450.965637	37.530339
451.128174	37.520018
451.290710	37.530941
451.453247	37.555792
451.615784	37.553076
451.778290	37.578061
451.940796	37.571020
452.103302	37.607850
452.265778	37.618146
452.428253	37.637425
452.590729	37.620441
452.753204	37.632162
452.915680	37.647538
453.078125	37.650081
453.240570	37.663640
453.403015	37.669221
453.565460	37.683566
453.727875	37.686049
453.890289	37.701023
454.052704	37.683510
454.215118	37.696901
454.377533	37.690548
454.539917	37.717866
454.702301	37.725922
454.864685	37.761399
455.027039	37.768339
455.189392	37.778176
455.351746	37.794544
455.514099	37.829840
455.676453	37.813467
455.838776	37.821321
456.001099	37.827567
456.163422	37.843862
456.325745	37.855534
456.488037	37.824619
456.650330	37.825883
456.812622	37.806797
